 LCModel (Version 6.3-1N) Copyright: S.W. Provencher.          Ref.: Magn. Reson. Med. 30:672-679 (1993).                
 FIGURE 1: ISHC Project Data (11.7T STEAM, TE= 3 ms).
 35 lines in following concentration table = NCONC+1
    Conc.  %SD /Cr+PCr  Metabolite                                         
    0.281  43%   0.763 Ala                                                 
    1.590  22%   4.318 Asp                                                 
    1.065  17%   2.891 Cr                                                  
    0.999  17%   2.714 GABA                                                
    1.723   9%   4.678 Gln                                                 
    4.651   5%  12.630 Glu                                                 
    0.154  18%   0.418 GPC                                                 
    0.777  39%   2.111 Lac                                                 
    1.696   8%   4.606 Ins                                                 
    3.085  17%   8.378 MM09                                                
    3.062  31%   8.316 MM12                                                
    4.730  10%  12.846 MM14                                                
    3.365  24%   9.139 MM19                                                
    5.458  25%  14.822 MM20                                                
    2.438  25%   6.620 MM22                                                
    1.433  52%   3.892-MM27                                                
    2.613  29%   7.096 MM30                                                
    2.790  23%   7.576 MM32                                                
    0.925  36%   2.513 MM37                                                
    0.944  43%   2.565 MM39                                                
    7.141  15%  19.394 MM079                                               
    7.988   6%  21.693 MM087                                               
    3.105  25%   8.432 MM167                                               
    3.083  26%   8.372 MM181                                               
    3.606   6%   9.793 NAA                                                 
    0.108 172%   0.294 NAAG                                                
    0.152  19%   0.414 PCho                                                
    1.881  13%   5.109 PCr                                                 
    0.618  23%   1.679 PE                                                  
    2.923   7%   7.939 Tau                                                 
    0.306  16%   0.832 PCho+GPC                                            
    2.946   7%   8.000 Cr+PCr                                              
    3.714  10%  10.086 NAA+NAAG                                            
    6.373   4%  17.308 Glu+Gln                                             
   6 lines in following misc. output table
  FWHM = 0.021 ppm    S/N =  13                                            
  Data shift = 0.043 ppm                                                   
  Ph:   0 deg       0.0 deg/ppm                                            
  alphaB,S = 3.9E-02,   2.4E+01                                            
   28 spline knots.   Ns = 5(1)                                            
  ( 8) 3 infls.   ( 9) 3 extrs.                                            
  695 points on ppm-axis = NY
      4.200000     4.194667     4.189334     4.184001     4.178668     4.173335     4.168002     4.162669     4.157336     4.152003
      4.146670     4.141337     4.136004     4.130672     4.125339     4.120006     4.114673     4.109340     4.104007     4.098674
      4.093341     4.088008     4.082675     4.077342     4.072009     4.066676     4.061343     4.056010     4.050677     4.045344
      4.040011     4.034678     4.029346     4.024013     4.018680     4.013347     4.008014     4.002681     3.997348     3.992014
      3.986681     3.981348     3.976015     3.970682     3.965348     3.960015     3.954682     3.949349     3.944016     3.938683
      3.933349     3.928016     3.922683     3.917350     3.912017     3.906683     3.901350     3.896017     3.890684     3.885351
      3.880018     3.874684     3.869351     3.864018     3.858685     3.853352     3.848018     3.842685     3.837352     3.832019
      3.826686     3.821352     3.816019     3.810686     3.805353     3.800020     3.794687     3.789353     3.784020     3.778687
      3.773354     3.768021     3.762687     3.757354     3.752021     3.746688     3.741355     3.736022     3.730688     3.725355
      3.720022     3.714689     3.709356     3.704022     3.698689     3.693356     3.688023     3.682690     3.677356     3.672023
      3.666690     3.661357     3.656024     3.650691     3.645357     3.640024     3.634691     3.629358     3.624025     3.618691
      3.613358     3.608025     3.602692     3.597359     3.592026     3.586692     3.581359     3.576026     3.570693     3.565360
      3.560026     3.554693     3.549360     3.544027     3.538694     3.533360     3.528027     3.522694     3.517361     3.512028
      3.506695     3.501361     3.496028     3.490695     3.485362     3.480029     3.474695     3.469362     3.464029     3.458696
      3.453363     3.448030     3.442696     3.437363     3.432030     3.426697     3.421364     3.416030     3.410697     3.405364
      3.400031     3.394698     3.389364     3.384031     3.378698     3.373365     3.368032     3.362699     3.357365     3.352032
      3.346699     3.341366     3.336033     3.330699     3.325366     3.320033     3.314700     3.309367     3.304034     3.298700
      3.293367     3.288034     3.282701     3.277368     3.272034     3.266701     3.261368     3.256035     3.250702     3.245368
      3.240035     3.234702     3.229369     3.224036     3.218703     3.213369     3.208036     3.202703     3.197370     3.192037
      3.186703     3.181370     3.176037     3.170704     3.165371     3.160038     3.154704     3.149371     3.144038     3.138705
      3.133372     3.128038     3.122705     3.117372     3.112039     3.106706     3.101372     3.096039     3.090706     3.085373
      3.080040     3.074707     3.069373     3.064040     3.058707     3.053374     3.048041     3.042707     3.037374     3.032041
      3.026708     3.021375     3.016042     3.010708     3.005375     3.000042     2.994709     2.989376     2.984042     2.978709
      2.973376     2.968043     2.962710     2.957376     2.952043     2.946710     2.941377     2.936044     2.930711     2.925377
      2.920044     2.914711     2.909378     2.904045     2.898711     2.893378     2.888045     2.882712     2.877379     2.872046
      2.866712     2.861379     2.856046     2.850713     2.845380     2.840046     2.834713     2.829380     2.824047     2.818714
      2.813380     2.808047     2.802714     2.797381     2.792048     2.786715     2.781381     2.776048     2.770715     2.765382
      2.760049     2.754715     2.749382     2.744049     2.738716     2.733383     2.728050     2.722716     2.717383     2.712050
      2.706717     2.701384     2.696050     2.690717     2.685384     2.680051     2.674718     2.669384     2.664051     2.658718
      2.653385     2.648052     2.642719     2.637385     2.632052     2.626719     2.621386     2.616053     2.610719     2.605386
      2.600053     2.594720     2.589387     2.584054     2.578720     2.573387     2.568054     2.562721     2.557388     2.552054
      2.546721     2.541388     2.536055     2.530722     2.525388     2.520055     2.514722     2.509389     2.504056     2.498723
      2.493389     2.488056     2.482723     2.477390     2.472057     2.466723     2.461390     2.456057     2.450724     2.445391
      2.440058     2.434724     2.429391     2.424058     2.418725     2.413392     2.408058     2.402725     2.397392     2.392059
      2.386726     2.381392     2.376059     2.370726     2.365393     2.360060     2.354727     2.349393     2.344060     2.338727
      2.333394     2.328061     2.322727     2.317394     2.312061     2.306728     2.301395     2.296062     2.290728     2.285395
      2.280062     2.274729     2.269396     2.264062     2.258729     2.253396     2.248063     2.242730     2.237396     2.232063
      2.226730     2.221397     2.216064     2.210731     2.205397     2.200064     2.194731     2.189398     2.184065     2.178731
      2.173398     2.168065     2.162732     2.157399     2.152066     2.146732     2.141399     2.136066     2.130733     2.125400
      2.120066     2.114733     2.109400     2.104067     2.098734     2.093400     2.088067     2.082734     2.077401     2.072068
      2.066735     2.061401     2.056068     2.050735     2.045402     2.040069     2.034735     2.029402     2.024069     2.018736
      2.013403     2.008070     2.002736     1.997403     1.992070     1.986737     1.981404     1.976070     1.970737     1.965404
      1.960071     1.954738     1.949404     1.944071     1.938738     1.933405     1.928072     1.922739     1.917405     1.912072
      1.906739     1.901406     1.896073     1.890739     1.885406     1.880073     1.874740     1.869407     1.864074     1.858740
      1.853407     1.848074     1.842741     1.837408     1.832074     1.826741     1.821408     1.816075     1.810742     1.805408
      1.800075     1.794742     1.789409     1.784076     1.778743     1.773409     1.768076     1.762743     1.757410     1.752077
      1.746743     1.741410     1.736077     1.730744     1.725411     1.720078     1.714744     1.709411     1.704078     1.698745
      1.693412     1.688078     1.682745     1.677412     1.672079     1.666746     1.661412     1.656079     1.650746     1.645413
      1.640080     1.634747     1.629413     1.624080     1.618747     1.613414     1.608081     1.602747     1.597414     1.592081
      1.586748     1.581415     1.576082     1.570748     1.565415     1.560082     1.554749     1.549416     1.544082     1.538749
      1.533416     1.528083     1.522750     1.517416     1.512083     1.506750     1.501417     1.496084     1.490751     1.485417
      1.480084     1.474751     1.469418     1.464085     1.458751     1.453418     1.448085     1.442752     1.437419     1.432086
      1.426752     1.421419     1.416086     1.410753     1.405420     1.400086     1.394753     1.389420     1.384087     1.378754
      1.373420     1.368087     1.362754     1.357421     1.352088     1.346755     1.341421     1.336088     1.330755     1.325422
      1.320089     1.314755     1.309422     1.304089     1.298756     1.293423     1.288090     1.282756     1.277423     1.272090
      1.266757     1.261424     1.256090     1.250757     1.245424     1.240091     1.234758     1.229424     1.224091     1.218758
      1.213425     1.208092     1.202759     1.197425     1.192092     1.186759     1.181426     1.176093     1.170759     1.165426
      1.160093     1.154760     1.149427     1.144094     1.138760     1.133427     1.128094     1.122761     1.117428     1.112094
      1.106761     1.101428     1.096095     1.090762     1.085428     1.080095     1.074762     1.069429     1.064096     1.058763
      1.053429     1.048096     1.042763     1.037430     1.032097     1.026763     1.021430     1.016097     1.010764     1.005431
      1.000098     0.994764     0.989431     0.984098     0.978765     0.973432     0.968099     0.962766     0.957433     0.952099
      0.946766     0.941433     0.936100     0.930767     0.925434     0.920101     0.914768     0.909434     0.904101     0.898768
      0.893435     0.888102     0.882769     0.877436     0.872102     0.866769     0.861436     0.856103     0.850770     0.845437
      0.840104     0.834771     0.829437     0.824104     0.818771     0.813438     0.808105     0.802772     0.797439     0.792106
      0.786772     0.781439     0.776106     0.770773     0.765440     0.760107     0.754774     0.749441     0.744107     0.738774
      0.733441     0.728108     0.722775     0.717442     0.712109     0.706776     0.701442     0.696109     0.690776     0.685443
      0.680110     0.674777     0.669444     0.664111     0.658777     0.653444     0.648111     0.642778     0.637445     0.632112
      0.626779     0.621446     0.616112     0.610779     0.605446     0.600113     0.594780     0.589447     0.584114     0.578781
      0.573447     0.568114     0.562781     0.557448     0.552115     0.546782     0.541449     0.536116     0.530782     0.525449
      0.520116     0.514783     0.509450     0.504117     0.498784
 NY phased data points follow
   2.91765E-02  1.62350E-03 -5.67936E-03 -3.14592E-03  3.70280E-03 -1.71361E-03 -1.26075E-02 -3.01301E-03 -2.01710E-02  3.33896E-02
   1.65853E-02  1.27498E-03  4.06774E-03  7.23289E-03 -1.25407E-02  9.51473E-04 -3.29178E-03 -9.53072E-03  1.32298E-02 -1.14809E-02
   1.48537E-02  1.34686E-02  5.24444E-03  5.13142E-02  7.54319E-02  8.08765E-02  6.22223E-02  6.50303E-02  3.17262E-02 -5.93646E-03
   1.62509E-02  4.01098E-02  4.06748E-02 -2.53855E-03  3.95359E-02  5.60485E-02  7.05536E-02  6.33331E-02  7.14857E-02  8.91011E-02
   7.31601E-02  8.51121E-02  8.09519E-02  6.20767E-02  7.41151E-02  5.50514E-02  1.02113E-01  1.48379E-01  1.86296E-01  2.20625E-01
   1.89828E-01  1.90614E-01  2.10450E-01  2.26620E-01  1.82807E-01  1.60672E-01  1.34067E-01  1.39519E-01  1.26971E-01  1.28791E-01
   9.33544E-02  8.11384E-02  7.71947E-02  8.73767E-02  7.36406E-02  7.25003E-02  7.28892E-02  8.90995E-02  8.41639E-02  6.72802E-02
   7.66715E-02  5.58866E-02  5.24906E-02  3.89801E-02  4.82085E-02  7.77319E-02  9.13159E-02  9.47316E-02  1.25683E-01  1.75001E-01
   2.22567E-01  2.17077E-01  2.00159E-01  1.96551E-01  1.86115E-01  1.68552E-01  1.80426E-01  1.30398E-01  1.08563E-01  1.02767E-01
   6.93550E-02  7.06994E-02  7.98141E-02  6.83794E-02  3.66746E-02  5.23888E-02  3.22098E-02  3.67831E-02  3.91651E-02  4.93071E-02
   5.95005E-02  6.63663E-02  2.91897E-02  5.02119E-02  7.87858E-02  9.62858E-02  1.02794E-01  9.65695E-02  1.22348E-01  1.03922E-01
   1.12571E-01  1.23305E-01  8.52245E-02  6.86300E-02  6.14678E-02  3.87614E-02  1.63942E-02  2.30973E-02 -1.77280E-02  3.45337E-02
   8.35666E-02  8.29369E-02  1.03636E-01  1.24482E-01  1.41312E-01  1.25171E-01  1.03250E-01  8.78512E-02  9.68525E-02  9.95862E-02
   8.36166E-02  6.14486E-02  3.79279E-02  2.44333E-02  1.86890E-02  3.33391E-02  5.66134E-02  4.61649E-02  3.38921E-02  5.81587E-02
   4.12273E-02  4.45755E-02  7.84520E-02  1.15232E-01  1.39555E-01  1.59450E-01  1.94883E-01  1.61793E-01  1.46930E-01  9.41134E-02
   8.76775E-02  2.68894E-02  5.24051E-02  1.32920E-02  1.78991E-02  1.47379E-02 -3.83111E-03  2.56300E-03 -3.21395E-03 -3.43268E-04
   1.63795E-02 -5.23919E-03  2.19917E-02  1.98261E-02  2.77769E-02  1.53438E-03  4.30234E-02  4.26404E-02  4.91798E-02  6.09602E-02
   6.12959E-02  7.39668E-02  1.17324E-01  1.30518E-01  1.45618E-01  1.96688E-01  2.03819E-01  2.23474E-01  2.55836E-01  1.99176E-01
   2.01241E-01  1.96050E-01  1.93665E-01  2.19476E-01  2.53576E-01  2.63608E-01  1.80616E-01  1.48080E-01  7.63988E-02  6.39719E-02
   5.50479E-02  4.67790E-02  3.90865E-02  1.98711E-02  2.69461E-02  2.34824E-02  3.67887E-02  2.21353E-02  3.54095E-02  4.00316E-02
   2.66260E-02  2.15806E-02  2.57748E-02  2.12257E-02  1.74376E-02  2.24703E-02  3.24690E-02  7.99452E-03  3.53035E-02  2.35917E-02
   1.68481E-02  7.78069E-03  3.57108E-02  4.10088E-02  5.88729E-02  8.38433E-02  1.77274E-01  2.79257E-01  4.07476E-01  4.33637E-01
   3.76841E-01  2.69076E-01  1.86979E-01  1.39721E-01  1.26543E-01  1.26719E-01  1.18204E-01  1.10521E-01  7.94305E-02  8.84488E-02
   7.59403E-02  6.69983E-02  6.13228E-02  5.77293E-02  6.67545E-02  6.69761E-02  4.55994E-02  4.44901E-02  3.26652E-02  1.41880E-02
   7.92641E-03 -2.02173E-03  8.39295E-03  2.63268E-02  1.38150E-02  1.54820E-02  1.16715E-02  1.40325E-02  1.70288E-02  1.19001E-02
   2.28744E-02  4.31061E-03  7.60484E-03  2.23610E-02  5.14205E-03  1.88147E-02  4.77938E-02  1.74491E-02 -1.04716E-03  6.37532E-03
   3.89538E-02  4.13958E-02  2.75933E-02  5.68557E-02  5.52564E-02  4.60588E-02  4.35612E-02  3.62053E-02  3.66322E-02  2.18335E-02
   1.10622E-02  1.33607E-02  2.94247E-02  2.53720E-02  2.50460E-02  4.30003E-02  1.42017E-02  3.15950E-02  4.73835E-02  6.77253E-02
   7.05215E-02  8.51624E-02  1.08608E-01  1.06721E-01  1.05548E-01  1.25353E-01  1.48070E-01  1.42027E-01  1.21938E-01  1.11165E-01
   9.11179E-02  7.74670E-02  6.34336E-02  4.59729E-02  6.47638E-02  4.59060E-02  3.47980E-02  1.68208E-02  2.46495E-02  4.80588E-02
   3.86150E-02  4.18673E-02  4.12544E-02  2.65800E-02  3.29061E-02  7.23677E-02  6.75470E-02  6.12070E-02  8.02960E-02  7.23903E-02
   5.76337E-02  5.32326E-02  8.12897E-02  6.43234E-02  8.26082E-02  1.05358E-01  9.99580E-02  9.90119E-02  1.20218E-01  9.10079E-02
   1.01125E-01  1.13314E-01  1.08474E-01  1.14971E-01  1.29376E-01  1.02594E-01  1.28787E-01  1.53782E-01  1.28582E-01  1.20472E-01
   1.02243E-01  7.92387E-02  1.12129E-01  7.83753E-02  5.94088E-02  7.50441E-02  4.58243E-02  5.42223E-02  8.87898E-02  8.53851E-02
   6.54702E-02  9.25857E-02  1.35178E-01  1.82452E-01  1.93222E-01  2.30599E-01  2.49855E-01  2.27025E-01  2.17438E-01  2.11201E-01
   1.57486E-01  1.51751E-01  1.27433E-01  1.05310E-01  9.11902E-02  1.12517E-01  1.28459E-01  1.34116E-01  9.61590E-02  1.24320E-01
   1.23681E-01  1.21444E-01  9.87598E-02  1.03526E-01  1.26206E-01  9.37373E-02  1.14139E-01  1.10442E-01  7.48857E-02  9.39422E-02
   7.37900E-02  8.87059E-02  7.35263E-02  7.48512E-02  7.15291E-02  8.60304E-02  5.96519E-02  6.95020E-02  9.08273E-02  1.03076E-01
   8.45017E-02  1.44226E-01  1.28671E-01  1.32197E-01  1.86017E-01  1.95535E-01  2.03263E-01  2.09667E-01  2.21885E-01  2.24316E-01
   2.38083E-01  2.07587E-01  2.08472E-01  1.97173E-01  1.80604E-01  1.65074E-01  1.68165E-01  1.78211E-01  1.96482E-01  2.05990E-01
   2.04020E-01  2.11610E-01  2.18559E-01  2.48310E-01  2.42178E-01  2.56873E-01  2.83744E-01  4.19714E-01  5.08708E-01  6.14441E-01
   6.00789E-01  4.52899E-01  3.01308E-01  2.33082E-01  1.82280E-01  1.36582E-01  1.36697E-01  1.49120E-01  1.13623E-01  1.15210E-01
   9.06048E-02  9.78044E-02  1.06504E-01  1.17286E-01  1.08180E-01  1.08565E-01  9.40280E-02  9.29557E-02  9.86462E-02  1.03512E-01
   9.06477E-02  9.21531E-02  1.23452E-01  1.03069E-01  9.43798E-02  8.57572E-02  9.89845E-02  1.11172E-01  1.09643E-01  6.62126E-02
   6.69060E-02  4.84548E-02  4.50107E-02  4.93439E-02  5.24315E-02  6.52349E-02  8.56292E-02  5.60440E-02  4.39963E-02  3.06864E-02
   4.10643E-02  5.62404E-02  3.69872E-02  7.72041E-02  5.41674E-02  4.56719E-02  3.80613E-02  8.78697E-02  7.43198E-02  6.58842E-02
   6.33558E-02  8.49180E-02  6.33546E-02  5.04576E-02  5.35724E-02  6.66253E-02  7.69878E-02  8.13626E-02  8.83190E-02  1.06872E-01
   7.35550E-02  1.16831E-01  1.21335E-01  1.01011E-01  9.29969E-02  7.74513E-02  7.74808E-02  9.56525E-02  6.82465E-02  8.18867E-02
   7.85119E-02  8.16176E-02  5.78391E-02  8.53531E-02  7.33646E-02  5.97471E-02  6.94446E-02  5.15057E-02  4.26975E-02  7.55204E-02
   5.44810E-02  5.58893E-02  5.18830E-02  4.76985E-02  7.81002E-02  4.96179E-02  5.52405E-02  2.54247E-02  5.90211E-02  4.32610E-02
   2.54117E-02  5.69364E-02  5.94041E-02  2.78729E-02  4.53796E-02  7.56214E-02  7.64749E-02  5.62695E-02  7.38481E-02  9.94387E-02
   7.11092E-02  7.96845E-02  6.14095E-02  9.05412E-02  1.02066E-01  9.52571E-02  1.09348E-01  8.62625E-02  1.08752E-01  9.16344E-02
   1.21247E-01  1.30358E-01  1.55870E-01  1.37443E-01  1.59193E-01  1.41340E-01  1.37014E-01  1.40662E-01  1.55502E-01  1.33086E-01
   1.10798E-01  1.21081E-01  1.05531E-01  1.08854E-01  9.65553E-02  9.58312E-02  1.06738E-01  9.95382E-02  1.38013E-01  1.13762E-01
   1.03619E-01  7.53606E-02  8.04691E-02  4.75557E-02  8.03780E-02  6.07998E-02  6.37199E-02  4.68757E-02  5.79598E-02  8.17246E-02
   8.49783E-02  6.11270E-02  6.46885E-02  7.00263E-02  7.98361E-02  8.93771E-02  7.47488E-02  7.66788E-02  6.39416E-02  8.85822E-02
   8.95190E-02  7.47657E-02  7.43330E-02  7.76018E-02  9.60776E-02  7.63001E-02  6.32121E-02  7.98754E-02  5.36205E-02  4.69993E-02
   3.38460E-02  6.26826E-02  2.32998E-02  2.82452E-02  3.78234E-02  2.44665E-02  2.10033E-02  2.51058E-02  1.60979E-02 -3.27911E-03
   3.36477E-02  4.08160E-02  3.53835E-02  1.95752E-02  3.33237E-02  3.45296E-02  2.81375E-02  2.98457E-02  1.39752E-02  5.10206E-02
   5.22725E-02  2.84634E-02  1.68853E-02  4.88295E-02  3.55842E-02  4.86704E-02  3.59469E-02  4.17620E-02  5.13001E-02  5.55573E-02
   5.27468E-02  8.15043E-02  7.21787E-02  6.72376E-02  9.55190E-02  7.22732E-02  6.85218E-02  1.16330E-01  1.29101E-01  1.48324E-01
   1.56490E-01  1.75506E-01  1.81278E-01  1.76937E-01  1.89341E-01  1.69773E-01  1.93523E-01  1.70108E-01  1.40032E-01  1.49115E-01
   1.52042E-01  1.48910E-01  1.59824E-01  1.62399E-01  1.12876E-01  1.28208E-01  1.34692E-01  1.15593E-01  1.25410E-01  1.00974E-01
   1.13062E-01  7.18630E-02  6.77563E-02  6.29916E-02  5.50207E-02  5.72427E-02  5.50020E-02  5.68754E-02  4.14386E-02  4.37885E-02
   2.89363E-02  5.16033E-02  2.85119E-02  2.51096E-02  4.87895E-02  2.82587E-02  2.22256E-02  3.74930E-02  2.11492E-02  1.37674E-02
   1.55373E-02  1.53711E-02  2.80095E-02  2.49847E-02  1.49864E-02  2.20965E-03  2.92882E-02  2.29628E-02 -6.34144E-03  1.84107E-02
   2.54086E-02 -8.50515E-03  7.16951E-03 -3.66648E-03 -2.02073E-03  3.19066E-02  1.22299E-02  1.53602E-02  6.12686E-03  2.08826E-02
   6.50452E-03 -3.06600E-03  1.58010E-02 -1.00884E-02  1.94457E-02  2.04637E-02 -5.32816E-03 -1.17796E-02  5.31599E-03 -4.35881E-03
   2.22362E-02  6.09390E-03  6.30907E-04  1.27625E-02 -2.29459E-02 -9.48007E-03  8.26911E-03 -1.30543E-02 -2.12339E-03  5.68215E-03
  -1.44785E-02 -1.64530E-03  1.87588E-02  1.92935E-02  7.54000E-03
 NY points of the fit to the data follow
  -5.62927E-03 -4.78848E-03 -3.93482E-03 -3.07200E-03 -2.19312E-03 -1.30089E-03 -3.85711E-04  5.53776E-04  1.53454E-03  2.56748E-03
   3.69011E-03  4.94770E-03  6.50385E-03  8.90435E-03  1.28865E-02  1.83057E-02  2.40175E-02  2.85022E-02  3.07686E-02  3.07481E-02
   2.94516E-02  2.95078E-02  3.45241E-02  4.65840E-02  6.39888E-02  7.84057E-02  8.14352E-02  7.24595E-02  5.71861E-02  4.37057E-02
   3.60412E-02  3.26150E-02  3.02542E-02  2.80603E-02  2.68257E-02  2.72634E-02  3.02927E-02  3.79877E-02  5.16703E-02  6.85253E-02
   8.14123E-02  8.41798E-02  7.75844E-02  6.92869E-02  6.73349E-02  7.51088E-02  9.46746E-02  1.28440E-01  1.70866E-01  2.05639E-01
   2.18970E-01  2.15158E-01  2.09591E-01  2.08178E-01  2.02182E-01  1.79437E-01  1.44752E-01  1.20824E-01  1.09364E-01  9.97669E-02
   8.68315E-02  7.32104E-02  6.30971E-02  5.70051E-02  5.30973E-02  4.98950E-02  4.75004E-02  4.61964E-02  4.56316E-02  4.54422E-02
   4.56109E-02  4.61005E-02  4.71129E-02  4.91509E-02  5.34293E-02  6.12781E-02  7.35731E-02  9.05794E-02  1.12532E-01  1.38455E-01
   1.65700E-01  1.89408E-01  2.04296E-01  2.07247E-01  1.98439E-01  1.80699E-01  1.57978E-01  1.33936E-01  1.13912E-01  9.85994E-02
   8.63851E-02  7.70935E-02  6.80166E-02  6.07608E-02  5.57409E-02  5.23978E-02  5.07876E-02  5.10013E-02  5.32195E-02  5.76352E-02
   6.42848E-02  7.25103E-02  8.07604E-02  8.79076E-02  9.49562E-02  1.03845E-01  1.13756E-01  1.20458E-01  1.20526E-01  1.14785E-01
   1.06613E-01  9.75441E-02  8.57290E-02  7.01573E-02  5.49245E-02  4.52087E-02  4.07497E-02  3.79290E-02  3.58610E-02  3.71869E-02
   4.56184E-02  6.31042E-02  8.65029E-02  1.07427E-01  1.18244E-01  1.18306E-01  1.12860E-01  1.05871E-01  9.60537E-02  8.08067E-02
   6.26517E-02  4.81570E-02  4.05188E-02  3.69670E-02  3.42630E-02  3.21774E-02  3.16656E-02  3.28275E-02  3.60302E-02  4.34388E-02
   5.77183E-02  7.95949E-02  1.07862E-01  1.37267E-01  1.60333E-01  1.70179E-01  1.63938E-01  1.44696E-01  1.17996E-01  9.11780E-02
   7.13168E-02  5.49279E-02  4.44543E-02  3.86617E-02  3.18864E-02  2.78099E-02  2.55920E-02  2.43391E-02  2.34408E-02  2.29294E-02
   2.25327E-02  2.23918E-02  2.23380E-02  2.26410E-02  2.35963E-02  2.62157E-02  3.10085E-02  3.77318E-02  4.52469E-02  5.34741E-02
   6.29889E-02  7.46548E-02  8.97375E-02  1.10078E-01  1.36361E-01  1.67871E-01  1.98760E-01  2.20342E-01  2.26467E-01  2.19991E-01
   2.11538E-01  2.10508E-01  2.21641E-01  2.40559E-01  2.45231E-01  2.25637E-01  1.83813E-01  1.32754E-01  9.33669E-02  7.04042E-02
   5.69936E-02  4.53954E-02  3.49904E-02  2.81082E-02  2.46931E-02  2.29988E-02  2.20756E-02  2.15069E-02  2.12008E-02  2.10421E-02
   2.10213E-02  2.10849E-02  2.12482E-02  2.14943E-02  2.18558E-02  2.23510E-02  2.30445E-02  2.40196E-02  2.54190E-02  2.74523E-02
   3.04240E-02  3.47691E-02  4.11065E-02  5.06620E-02  6.84602E-02  1.09695E-01  1.89946E-01  2.97929E-01  3.87546E-01  4.10004E-01
   3.59135E-01  2.77205E-01  2.13021E-01  1.81817E-01  1.59122E-01  1.24510E-01  9.32601E-02  7.14486E-02  5.55151E-02  4.49518E-02
   3.84172E-02  3.28694E-02  2.87210E-02  2.60314E-02  2.42057E-02  2.29464E-02  2.20668E-02  2.14380E-02  2.09877E-02  2.06499E-02
   2.04042E-02  2.02148E-02  2.00833E-02  1.99857E-02  1.99338E-02  1.99106E-02  1.99346E-02  1.99951E-02  2.01176E-02  2.03022E-02
   2.05939E-02  2.10277E-02  2.17457E-02  2.31838E-02  2.62061E-02  3.12692E-02  3.73128E-02  4.16665E-02  4.21464E-02  3.93156E-02
   3.68227E-02  3.85437E-02  4.48631E-02  5.16041E-02  5.39386E-02  5.02175E-02  4.32167E-02  3.70740E-02  3.44125E-02  3.43737E-02
   3.49435E-02  3.54395E-02  3.62277E-02  3.74794E-02  3.87314E-02  4.01208E-02  4.21052E-02  4.61489E-02  5.44170E-02  6.80284E-02
   8.43958E-02  9.77695E-02  1.03237E-01  1.01696E-01  1.00479E-01  1.07252E-01  1.21294E-01  1.32555E-01  1.30597E-01  1.14360E-01
   9.19302E-02  7.36458E-02  6.41403E-02  5.94482E-02  5.44412E-02  4.86787E-02  4.32402E-02  3.85406E-02  3.59118E-02  3.52783E-02
   3.48689E-02  3.41387E-02  3.38616E-02  3.39306E-02  3.42088E-02  3.46876E-02  3.53804E-02  3.62132E-02  3.70719E-02  3.79571E-02
   3.94005E-02  4.28885E-02  5.03711E-02  6.20423E-02  7.47619E-02  8.42632E-02  8.96772E-02  9.45921E-02  1.02515E-01  1.11785E-01
   1.16891E-01  1.15921E-01  1.14885E-01  1.21149E-01  1.34101E-01  1.46181E-01  1.51136E-01  1.48345E-01  1.41220E-01  1.32526E-01
   1.21676E-01  1.07894E-01  9.33122E-02  8.09507E-02  7.25327E-02  6.83731E-02  6.73808E-02  6.81716E-02  7.08331E-02  7.75372E-02
   9.19808E-02  1.16036E-01  1.47820E-01  1.83823E-01  2.19001E-01  2.46245E-01  2.58563E-01  2.53110E-01  2.32588E-01  2.01923E-01
   1.70029E-01  1.43316E-01  1.19750E-01  1.05827E-01  1.03646E-01  1.02965E-01  1.04156E-01  1.08381E-01  1.12161E-01  1.13370E-01
   1.11550E-01  1.07530E-01  1.02478E-01  9.87775E-02  9.70661E-02  9.56228E-02  9.61407E-02  9.77119E-02  9.77699E-02  9.70758E-02
   9.56725E-02  9.33934E-02  9.04356E-02  8.71789E-02  8.40263E-02  8.13793E-02  7.95905E-02  7.92160E-02  8.11587E-02  8.65917E-02
   9.65527E-02  1.11232E-01  1.29964E-01  1.51626E-01  1.74304E-01  1.95659E-01  2.13259E-01  2.24774E-01  2.28943E-01  2.24737E-01
   2.12827E-01  1.95441E-01  1.75449E-01  1.58292E-01  1.46622E-01  1.40808E-01  1.43113E-01  1.51769E-01  1.64604E-01  1.81081E-01
   1.98863E-01  2.16311E-01  2.30276E-01  2.39003E-01  2.44587E-01  2.60137E-01  3.12448E-01  4.12356E-01  5.29936E-01  6.02784E-01
   5.76272E-01  4.59783E-01  3.21853E-01  2.25403E-01  1.81612E-01  1.58003E-01  1.30006E-01  1.04942E-01  9.23777E-02  8.90804E-02
   8.96393E-02  9.15793E-02  9.40019E-02  9.65612E-02  9.90780E-02  1.01435E-01  1.03839E-01  1.06467E-01  1.09068E-01  1.11422E-01
   1.13101E-01  1.13604E-01  1.12443E-01  1.09443E-01  1.05190E-01  9.96627E-02  9.37168E-02  8.88388E-02  8.38901E-02  7.99386E-02
   7.77302E-02  7.54212E-02  7.36345E-02  7.24439E-02  7.10852E-02  6.97361E-02  6.84392E-02  6.71834E-02  6.59968E-02  6.49292E-02
   6.40020E-02  6.32362E-02  6.26229E-02  6.21622E-02  6.18376E-02  6.16557E-02  6.16234E-02  6.17887E-02  6.22151E-02  6.30125E-02
   6.43010E-02  6.62201E-02  6.88654E-02  7.22773E-02  7.63680E-02  8.09215E-02  8.55649E-02  8.98379E-02  9.32388E-02  9.53492E-02
   9.58950E-02  9.48310E-02  9.23181E-02  8.87102E-02  8.44437E-02  7.99788E-02  7.56925E-02  7.18673E-02  6.86480E-02  6.60870E-02
   6.41410E-02  6.27333E-02  6.17512E-02  6.10998E-02  6.06807E-02  6.04291E-02  6.02825E-02  6.02106E-02  6.01816E-02  6.01876E-02
   6.02096E-02  6.02502E-02  6.02987E-02  6.03625E-02  6.04343E-02  6.05228E-02  6.06215E-02  6.07415E-02  6.08795E-02  6.10506E-02
   6.12552E-02  6.15083E-02  6.18161E-02  6.22209E-02  6.27857E-02  6.36909E-02  6.54996E-02  6.94322E-02  7.62706E-02  8.45280E-02
   9.04764E-02  9.11477E-02  8.74285E-02  8.36144E-02  8.36665E-02  8.83274E-02  9.54891E-02  1.03826E-01  1.13907E-01  1.25291E-01
   1.36440E-01  1.45895E-01  1.52396E-01  1.55089E-01  1.53634E-01  1.48292E-01  1.39817E-01  1.29305E-01  1.17930E-01  1.06772E-01
   9.66498E-02  8.81007E-02  8.13893E-02  7.68065E-02  7.49053E-02  7.58227E-02  7.85563E-02  8.14265E-02  8.28660E-02  8.21740E-02
   7.94216E-02  7.53306E-02  7.10869E-02  6.74101E-02  6.51430E-02  6.44246E-02  6.35941E-02  6.31656E-02  6.37439E-02  6.50826E-02
   6.71357E-02  6.98139E-02  7.29778E-02  7.63678E-02  7.96373E-02  8.23888E-02  8.42464E-02  8.49348E-02  8.43321E-02  8.25016E-02
   7.96582E-02  7.61346E-02  7.22906E-02  6.84680E-02  6.49221E-02  6.18231E-02  5.92334E-02  5.71543E-02  5.55250E-02  5.42741E-02
   5.33122E-02  5.25710E-02  5.19804E-02  5.14988E-02  5.10821E-02  5.07131E-02  5.03682E-02  5.00460E-02  4.97340E-02  4.94370E-02
   4.91450E-02  4.88664E-02  4.85937E-02  4.83354E-02  4.80834E-02  4.78454E-02  4.76111E-02  4.73884E-02  4.71680E-02  4.69591E-02
   4.67542E-02  4.65638E-02  4.63804E-02  4.62165E-02  4.60714E-02  4.59669E-02  4.59188E-02  4.59759E-02  4.61930E-02  4.66702E-02
   4.75224E-02  4.89168E-02  5.10352E-02  5.41060E-02  5.83597E-02  6.40576E-02  7.14476E-02  8.07782E-02  9.22206E-02  1.05828E-01
