 LCModel (Version 6.3-1N) Copyright: S.W. Provencher.          Ref.: Magn. Reson. Med. 30:672-679 (1993).                
 FIGURE 1: ISHC Project Data (11.7T STEAM, TE= 3 ms).
 35 lines in following concentration table = NCONC+1
    Conc.  %SD /Cr+PCr  Metabolite                                         
    0.000 999%   0.000 Ala                                                 
 4.49E+04  89%  24.461 Asp                                                 
    0.000 999%   0.000 Cr                                                  
    0.000 999%   0.000 GABA                                                
 1.32E+04 161%   7.187 Gln                                                 
 3.94E+04  68%  21.435 Glu                                                 
    0.000 999%   0.000 GPC                                                 
    0.000 999%   0.000 Lac                                                 
 2.06E+04  97%  11.236 Ins                                                 
 1.12E+03 626%   0.609 MM09                                                
    0.000 999%   0.000 MM12                                                
    0.000 999%   0.000 MM14                                                
  492.995 999%   0.268 MM19                                                
    0.000 999%   0.000 MM20                                                
    0.000 999%   0.000 MM22                                                
 1.45E+03 733%   0.789 MM27                                                
 2.08E+03 510%   1.134 MM30                                                
  969.704 999%   0.528 MM32                                                
    0.000 999%   0.000 MM37                                                
    0.000 999%   0.000 MM39                                                
    0.000 999%   0.000 MM079                                               
 7.04E+03 547%   3.832 MM087                                               
    0.000 999%   0.000 MM167                                               
    0.000 999%   0.000 MM181                                               
    0.000 999%   0.000 NAA                                                 
 1.04E+04 170%   5.646 NAAG                                                
    0.256 999% 1.4E-04 PCho                                                
 1.47E+04 118%   8.000 PCr                                                 
    0.000 999%   0.000 PE                                                  
 1.29E+04 172%   7.041 Tau                                                 
    0.256 999% 1.4E-04 PCho+GPC                                            
 1.47E+04 118%   8.000 Cr+PCr                                              
 1.04E+04 170%   5.646 NAA+NAAG                                            
 5.26E+04  55%  28.622 Glu+Gln                                             
   6 lines in following misc. output table
  FWHM = 0.064 ppm    S/N =   0                                            
  Data shift = 0.000 ppm                                                   
  Ph:   0 deg       0.0 deg/ppm                                            
  alphaB,S = 6.7E+00,   4.7E+01                                            
   28 spline knots.   Ns = 9(1)                                            
   2 inflections.     1 extrema                                            
  695 points on ppm-axis = NY
      4.200000     4.194667     4.189334     4.184001     4.178668     4.173335     4.168002     4.162669     4.157336     4.152003
      4.146670     4.141337     4.136004     4.130672     4.125339     4.120006     4.114673     4.109340     4.104007     4.098674
      4.093341     4.088008     4.082675     4.077342     4.072009     4.066676     4.061343     4.056010     4.050677     4.045344
      4.040011     4.034678     4.029346     4.024013     4.018680     4.013347     4.008014     4.002681     3.997348     3.992014
      3.986681     3.981348     3.976015     3.970682     3.965348     3.960015     3.954682     3.949349     3.944016     3.938683
      3.933349     3.928016     3.922683     3.917350     3.912017     3.906683     3.901350     3.896017     3.890684     3.885351
      3.880018     3.874684     3.869351     3.864018     3.858685     3.853352     3.848018     3.842685     3.837352     3.832019
      3.826686     3.821352     3.816019     3.810686     3.805353     3.800020     3.794687     3.789353     3.784020     3.778687
      3.773354     3.768021     3.762687     3.757354     3.752021     3.746688     3.741355     3.736022     3.730688     3.725355
      3.720022     3.714689     3.709356     3.704022     3.698689     3.693356     3.688023     3.682690     3.677356     3.672023
      3.666690     3.661357     3.656024     3.650691     3.645357     3.640024     3.634691     3.629358     3.624025     3.618691
      3.613358     3.608025     3.602692     3.597359     3.592026     3.586692     3.581359     3.576026     3.570693     3.565360
      3.560026     3.554693     3.549360     3.544027     3.538694     3.533360     3.528027     3.522694     3.517361     3.512028
      3.506695     3.501361     3.496028     3.490695     3.485362     3.480029     3.474695     3.469362     3.464029     3.458696
      3.453363     3.448030     3.442696     3.437363     3.432030     3.426697     3.421364     3.416030     3.410697     3.405364
      3.400031     3.394698     3.389364     3.384031     3.378698     3.373365     3.368032     3.362699     3.357365     3.352032
      3.346699     3.341366     3.336033     3.330699     3.325366     3.320033     3.314700     3.309367     3.304034     3.298700
      3.293367     3.288034     3.282701     3.277368     3.272034     3.266701     3.261368     3.256035     3.250702     3.245368
      3.240035     3.234702     3.229369     3.224036     3.218703     3.213369     3.208036     3.202703     3.197370     3.192037
      3.186703     3.181370     3.176037     3.170704     3.165371     3.160038     3.154704     3.149371     3.144038     3.138705
      3.133372     3.128038     3.122705     3.117372     3.112039     3.106706     3.101372     3.096039     3.090706     3.085373
      3.080040     3.074707     3.069373     3.064040     3.058707     3.053374     3.048041     3.042707     3.037374     3.032041
      3.026708     3.021375     3.016042     3.010708     3.005375     3.000042     2.994709     2.989376     2.984042     2.978709
      2.973376     2.968043     2.962710     2.957376     2.952043     2.946710     2.941377     2.936044     2.930711     2.925377
      2.920044     2.914711     2.909378     2.904045     2.898711     2.893378     2.888045     2.882712     2.877379     2.872046
      2.866712     2.861379     2.856046     2.850713     2.845380     2.840046     2.834713     2.829380     2.824047     2.818714
      2.813380     2.808047     2.802714     2.797381     2.792048     2.786715     2.781381     2.776048     2.770715     2.765382
      2.760049     2.754715     2.749382     2.744049     2.738716     2.733383     2.728050     2.722716     2.717383     2.712050
      2.706717     2.701384     2.696050     2.690717     2.685384     2.680051     2.674718     2.669384     2.664051     2.658718
      2.653385     2.648052     2.642719     2.637385     2.632052     2.626719     2.621386     2.616053     2.610719     2.605386
      2.600053     2.594720     2.589387     2.584054     2.578720     2.573387     2.568054     2.562721     2.557388     2.552054
      2.546721     2.541388     2.536055     2.530722     2.525388     2.520055     2.514722     2.509389     2.504056     2.498723
      2.493389     2.488056     2.482723     2.477390     2.472057     2.466723     2.461390     2.456057     2.450724     2.445391
      2.440058     2.434724     2.429391     2.424058     2.418725     2.413392     2.408058     2.402725     2.397392     2.392059
      2.386726     2.381392     2.376059     2.370726     2.365393     2.360060     2.354727     2.349393     2.344060     2.338727
      2.333394     2.328061     2.322727     2.317394     2.312061     2.306728     2.301395     2.296062     2.290728     2.285395
      2.280062     2.274729     2.269396     2.264062     2.258729     2.253396     2.248063     2.242730     2.237396     2.232063
      2.226730     2.221397     2.216064     2.210731     2.205397     2.200064     2.194731     2.189398     2.184065     2.178731
      2.173398     2.168065     2.162732     2.157399     2.152066     2.146732     2.141399     2.136066     2.130733     2.125400
      2.120066     2.114733     2.109400     2.104067     2.098734     2.093400     2.088067     2.082734     2.077401     2.072068
      2.066735     2.061401     2.056068     2.050735     2.045402     2.040069     2.034735     2.029402     2.024069     2.018736
      2.013403     2.008070     2.002736     1.997403     1.992070     1.986737     1.981404     1.976070     1.970737     1.965404
      1.960071     1.954738     1.949404     1.944071     1.938738     1.933405     1.928072     1.922739     1.917405     1.912072
      1.906739     1.901406     1.896073     1.890739     1.885406     1.880073     1.874740     1.869407     1.864074     1.858740
      1.853407     1.848074     1.842741     1.837408     1.832074     1.826741     1.821408     1.816075     1.810742     1.805408
      1.800075     1.794742     1.789409     1.784076     1.778743     1.773409     1.768076     1.762743     1.757410     1.752077
      1.746743     1.741410     1.736077     1.730744     1.725411     1.720078     1.714744     1.709411     1.704078     1.698745
      1.693412     1.688078     1.682745     1.677412     1.672079     1.666746     1.661412     1.656079     1.650746     1.645413
      1.640080     1.634747     1.629413     1.624080     1.618747     1.613414     1.608081     1.602747     1.597414     1.592081
      1.586748     1.581415     1.576082     1.570748     1.565415     1.560082     1.554749     1.549416     1.544082     1.538749
      1.533416     1.528083     1.522750     1.517416     1.512083     1.506750     1.501417     1.496084     1.490751     1.485417
      1.480084     1.474751     1.469418     1.464085     1.458751     1.453418     1.448085     1.442752     1.437419     1.432086
      1.426752     1.421419     1.416086     1.410753     1.405420     1.400086     1.394753     1.389420     1.384087     1.378754
      1.373420     1.368087     1.362754     1.357421     1.352088     1.346755     1.341421     1.336088     1.330755     1.325422
      1.320089     1.314755     1.309422     1.304089     1.298756     1.293423     1.288090     1.282756     1.277423     1.272090
      1.266757     1.261424     1.256090     1.250757     1.245424     1.240091     1.234758     1.229424     1.224091     1.218758
      1.213425     1.208092     1.202759     1.197425     1.192092     1.186759     1.181426     1.176093     1.170759     1.165426
      1.160093     1.154760     1.149427     1.144094     1.138760     1.133427     1.128094     1.122761     1.117428     1.112094
      1.106761     1.101428     1.096095     1.090762     1.085428     1.080095     1.074762     1.069429     1.064096     1.058763
      1.053429     1.048096     1.042763     1.037430     1.032097     1.026763     1.021430     1.016097     1.010764     1.005431
      1.000098     0.994764     0.989431     0.984098     0.978765     0.973432     0.968099     0.962766     0.957433     0.952099
      0.946766     0.941433     0.936100     0.930767     0.925434     0.920101     0.914768     0.909434     0.904101     0.898768
      0.893435     0.888102     0.882769     0.877436     0.872102     0.866769     0.861436     0.856103     0.850770     0.845437
      0.840104     0.834771     0.829437     0.824104     0.818771     0.813438     0.808105     0.802772     0.797439     0.792106
      0.786772     0.781439     0.776106     0.770773     0.765440     0.760107     0.754774     0.749441     0.744107     0.738774
      0.733441     0.728108     0.722775     0.717442     0.712109     0.706776     0.701442     0.696109     0.690776     0.685443
      0.680110     0.674777     0.669444     0.664111     0.658777     0.653444     0.648111     0.642778     0.637445     0.632112
      0.626779     0.621446     0.616112     0.610779     0.605446     0.600113     0.594780     0.589447     0.584114     0.578781
      0.573447     0.568114     0.562781     0.557448     0.552115     0.546782     0.541449     0.536116     0.530782     0.525449
      0.520116     0.514783     0.509450     0.504117     0.498784
 NY phased data points follow
   4.28819E+02  1.56552E+03  2.45484E+03 -3.55796E+02 -4.22503E+02 -3.77497E+03 -2.23260E+03 -1.28010E+03 -2.88921E+03  3.48634E+03
   1.47139E+03 -1.34565E+03  1.51300E+02 -2.96054E+03 -1.66178E+03 -1.22828E+02 -2.25171E+03 -7.13518E+01  6.96425E+02 -3.39281E+03
  -1.53333E+03  1.96467E+03  2.45332E+02 -2.92580E+03 -4.40923E+03  3.69744E+02 -1.40787E+03 -2.90701E+02 -3.03963E+03 -1.65309E+03
  -7.01516E+02 -7.08536E+02 -9.79661E+02 -2.33752E+03 -1.51044E+03 -2.61271E+03 -3.93725E+03  1.09464E+03 -2.11255E+03 -5.07560E+03
  -4.87956E+03  4.23433E+03  2.85246E+02  2.19814E+02  9.24613E+02 -1.83414E+02 -2.12768E+03 -3.34198E+02 -2.93500E+02  2.09197E+03
   4.35954E+02 -4.13106E+03  2.15391E+03  4.65479E+02  3.17535E+03 -1.20607E+03 -2.41598E+03 -2.67709E+02 -3.70817E+03 -1.45012E+01
   4.78088E+02  1.90263E+03 -6.71553E+02 -2.79520E+03 -4.23102E+03  3.88927E+03  3.13577E+03 -1.36210E+03  1.76126E+02 -1.86794E+03
  -1.21051E+03  4.08119E+03 -2.46198E+03 -1.86576E+03  1.97904E+03  1.64778E+03  2.98697E+03 -1.74230E+03 -2.12496E+03 -3.76598E+02
   1.24440E+03  1.23663E+03  4.55998E+02  1.49192E+03 -7.33194E+02 -1.52979E+03  8.19571E+02 -1.41682E+03  5.65255E+02 -2.50746E+02
  -3.30900E+03  1.00987E+03 -1.29329E+03 -5.91943E+03 -5.50317E+03 -1.50812E+03  3.25778E+03  3.70533E+03  1.11612E+03  3.39468E+03
   3.96452E+03  1.93884E+03  3.02127E+02  2.30310E+03  7.98634E+02 -4.07399E+03 -1.02181E+02  1.71987E+03  1.66759E+03  8.00055E+03
   2.10476E+01  4.39607E+03  1.15564E+03  9.61821E+02  3.64919E+02  2.93168E+03  2.39817E+03 -7.07937E+02  2.57846E+03  5.27890E+02
   1.68454E+03  1.95267E+03  2.67050E+03 -1.53126E+03  1.06061E+03  1.72764E+03  1.65534E+03  9.63532E+02  1.50020E+03  1.10245E+04
  -1.98737E+03 -1.88891E+03 -4.11171E+03  3.27124E+03  8.08142E+02  3.70805E+03  3.07327E+03  8.91759E+02 -6.28093E+02  4.57011E+03
   8.31611E+02 -9.02406E+02  2.01862E+03 -4.81136E+01  3.92153E+03  6.56670E+01  4.24615E+03 -1.37367E+02  2.48258E+03 -4.97782E+03
  -2.19020E+02  6.07882E+02  3.45565E+03  1.25824E+03  7.02356E+02  3.51746E+03 -1.36905E+02  2.16925E+03  3.84531E+03 -1.29599E+03
   7.17603E+02 -6.67119E+02  5.86759E+02  6.06037E+02  3.83124E+02  3.68205E+02 -4.49856E+02  8.26675E+02  3.41214E+03  2.46345E+02
   1.86343E+02 -1.19240E+03  2.28844E+03 -1.78376E+03 -1.13181E+03  8.53680E+02  2.91334E+03 -8.26893E+02  8.70285E+02 -7.79027E+02
  -5.25352E+03  3.73765E+03  2.85579E+03  2.04344E+02 -2.42679E+03  7.94563E+03 -3.12844E+03  2.31207E+03  2.32192E+02  3.29262E+03
   7.97291E+02  2.53722E+03  1.13317E+03  3.49325E+03  1.38969E+03  8.70704E+02  5.12718E+03  5.21967E+03  7.54458E+03  1.15985E+04
   1.05996E+04  9.51273E+03  9.35612E+03  9.02046E+03  1.05662E+04  7.91526E+03 -2.97493E+02  5.34220E+03  2.42161E+03  3.06734E+03
   5.57312E+03  3.66046E+03  4.31420E+03  2.95325E+03  1.89634E+03 -6.77731E+01 -2.88355E+03 -8.43637E+02  7.82097E+02  2.27204E+03
   3.75800E+03  1.45014E+03 -9.06508E+02  4.09832E+03  2.11637E+03 -5.67338E+02  2.87155E+03  1.77742E+03 -4.66457E+03  1.79177E+03
  -1.61261E+03 -1.60954E+03  7.09620E+01  1.47407E+02 -1.41581E+02 -4.93793E+02 -2.56986E+03 -7.33983E+02  4.95729E+03 -2.93144E+03
  -7.70490E+02  2.73565E+03 -4.35060E+02  1.20105E+03 -6.67509E+02  5.74070E+02  1.28533E+03  1.97442E+02 -4.25161E+03 -1.65149E+03
   3.19668E+03  2.65898E+03  2.46515E+02 -4.31611E+01  7.80102E+02  3.83287E+03  3.92347E+03  2.71886E+03  1.94457E+03 -8.89056E+02
  -6.58865E+02  1.52616E+03  4.07200E+03  6.40249E+03 -1.16988E+03  2.64660E+03  8.37248E+02  4.26358E+03  4.08796E+00 -1.71040E+03
  -1.82050E+02  3.01756E+03  3.81329E+03 -1.06042E+03  6.25794E+03  8.48385E+02  1.05982E+03 -1.10158E+03 -3.64641E+02 -9.36818E+02
   2.65709E+03  3.55876E+03  3.86597E+02 -2.36844E+03 -1.62374E+03  4.06587E+03  4.75390E+03  3.29304E+03  3.45396E+03  9.92891E+02
  -8.70574E+02  4.49140E+03  2.00115E+03  3.14618E+03  3.78549E+03  1.32818E+02  7.08697E+02 -6.23068E+03 -5.04476E+02  2.86926E+03
   9.71220E+02  5.49620E+03  4.73128E+03  3.07735E+03  1.10554E+03  4.52430E+03  1.88123E+03  2.85280E+03  8.95651E+02  1.99331E+03
   2.51310E+03  2.32543E+03  2.89841E+03  7.34466E+02  3.29407E+03 -3.55762E+02  3.69442E+02  3.17697E+03  6.00998E+03  1.17696E+03
   2.16821E+03  3.27690E+03  1.32484E+03 -7.26402E+02  7.82388E+03  1.64518E+03 -3.46291E+03 -2.72807E+03  6.31752E+02  4.15228E+03
   1.26736E+03 -4.54105E+02  5.39855E+03  2.18346E+03 -5.11465E+01  1.37495E+03  3.98367E+03  1.59524E+03  2.50164E+03  1.81077E+03
   1.82005E+03 -1.14165E+03  1.00115E+03  9.15653E+03  1.93382E+03  6.23361E+02  3.98818E+03  1.68269E+03  2.69448E+03  3.72709E+03
  -1.58365E+03  5.33140E+03  1.77586E+03  2.04736E+03 -3.59080E+02  3.24620E+03 -7.91559E+00  2.00147E+03 -2.78334E+03 -1.53515E+03
  -1.60401E+03 -3.24813E+03  2.30369E+03 -1.05884E+03 -1.48891E+03 -2.57141E+03 -3.47020E+03  5.42468E+02  6.41896E+02 -4.36619E+02
   4.57760E+03  8.23910E+02  4.62799E+02 -2.12135E+03 -2.41761E+03 -9.98809E+01 -1.24193E+03 -1.97559E+03  5.84984E+02  2.44179E+03
  -1.05082E+03  1.35121E+02  2.81763E+03 -2.94452E+03  2.21833E+03 -1.48222E+03  1.94611E+03  6.47046E+03  2.56926E+03  3.97044E+03
  -2.07269E+03  1.76125E+03  1.53535E+03  2.03801E+03  6.13414E+03 -5.66306E+02  3.12203E+03  1.92540E+03 -2.17305E+03 -4.18950E+03
   2.43032E+03  5.80041E+03  2.06060E+03  3.35416E+03 -3.33928E+03 -1.60488E+02  2.32916E+03  2.48230E+03 -6.41311E+02 -1.36136E+03
   4.29917E+03 -3.45678E+03  2.59824E+03 -4.14260E+02  1.40814E+03 -2.76027E+03  2.10466E+03 -1.49061E+03  2.05120E+03  1.12047E+03
  -1.73844E+03 -2.74797E+03 -7.89192E+02  6.54215E+02 -1.30277E+03  6.48973E+02  3.83964E+03 -3.15212E+03 -6.75444E+03  2.30256E+03
   1.95663E+02  3.02586E+03 -2.44520E+02 -4.05516E+02  3.05590E+03 -1.72753E+03  3.71312E+03  1.17177E+03  3.59629E+03  7.82592E+01
   3.00688E+02 -1.26040E+03 -4.81015E+03 -1.51596E+03  2.01095E+03  2.81092E+02  1.57159E+03 -6.20743E+02  2.18596E+03  1.07419E+03
   4.56937E+03 -6.09458E+02 -2.93118E+01  1.40653E+03  3.51566E+03 -1.49669E+03  3.69757E+03 -2.87868E+03  2.14990E+03 -2.67978E+03
  -1.82535E+03 -3.44464E+03  4.08553E+03 -2.27898E+03  2.66723E+03  2.57564E+03 -3.68032E+03  1.83456E+03  2.62071E+03  3.89688E+03
   2.13863E+03  4.40616E+03 -4.54406E+03 -4.16547E+03  1.36751E+03 -1.44149E+03 -2.20669E+03  5.14539E+03  6.59501E+01 -7.07640E+02
  -1.04237E+03  1.48235E+03  4.11790E+03  1.83958E+03 -4.95027E+03 -2.51145E+02  1.24324E+03 -4.72167E+02  2.09979E+03 -9.63599E+01
  -3.22752E+03  3.88973E+03  2.15430E+03  4.83845E+02  3.97485E+03  2.78531E+03  8.91841E+02 -8.97109E+02 -1.24093E+03 -9.68140E+02
  -6.41377E+02  3.07629E+03  7.45938E+02  1.01599E+02  6.30147E+01  2.66587E+03 -6.63784E+02 -1.13281E+03  2.08008E+02  2.63177E+03
   3.09461E+03  3.37442E+03 -1.05624E+03  1.18676E+03 -1.64800E+03 -5.26187E+02  1.05369E+03  1.35126E+03  5.70124E+03 -3.03838E+03
  -2.52153E+03  4.11049E+03  2.66226E+03 -3.15998E+03  4.59092E+02  9.05645E+02  2.76858E+03 -2.63060E+03 -1.29745E+03  5.57208E+03
  -3.50968E+03  1.90466E+03 -1.91899E+03 -4.93925E+02  1.77406E+03  8.05380E+02 -1.78317E+02  1.75787E+03 -1.19042E+02  1.92418E+03
  -1.44438E+03 -1.41047E+03 -4.02921E+02  3.63070E+03  2.00548E+03  1.98536E+03 -5.30144E+02  1.92814E+03  6.29251E+02  4.44643E+02
   2.38535E+03  3.31266E+02  1.34691E+03  3.31663E+03  4.24035E+02 -1.77466E+03 -9.76654E+02  8.47573E+02  3.29271E+02  3.91554E+02
  -7.45832E+02  4.25437E+02 -1.30653E+02  5.87046E+02  2.06298E+03  2.04553E+03  2.17102E+03 -2.64311E+02  2.29862E+03  3.91097E+03
   2.39838E+03 -1.47737E+03  6.85728E+02 -1.23253E+02 -2.08644E+03  4.78173E+02  3.12238E+03  3.77899E+03  5.70711E+02  3.12844E+03
   2.79076E+03 -3.76360E+03 -1.14494E+03  3.89350E+03  1.86533E+03  8.80774E+02  1.04165E+03 -2.27676E+03  2.20464E+02  6.58415E+03
   2.26954E+03  4.04763E+03  4.26317E+03 -1.33688E+03 -5.11756E+03 -1.02201E+03  6.69134E+02  4.40309E+03  2.90384E+03  1.98993E+03
   2.22198E+03  4.25038E+02  3.43475E+03  3.59053E+03 -2.18781E+03  1.08779E+03  2.96835E+03  1.54729E+03  1.87741E+03  3.05701E+03
   1.51665E+03  1.89652E+03  1.30867E+03  3.22497E+03  3.65585E+03  2.71753E+03  6.46700E+02  1.57299E+03  5.25834E+03  2.04630E+03
   1.44587E+02 -2.06178E+03 -2.23782E+03 -1.50263E+02 -7.96524E+02 -4.78039E+03  2.76847E+03 -4.19211E+02 -1.18779E+03 -3.71223E+03
  -2.53951E+03  8.19121E+02 -5.52603E+03  1.17012E+03 -2.45031E+03  3.38646E+03  9.53233E+02 -3.00579E+03  1.95883E+03  4.53959E+03
  -1.05012E+03  1.88015E+03  4.66714E+03 -1.13727E+02 -2.84970E+03  1.31457E+03  1.35155E+03 -1.58452E+02 -2.55868E+03 -3.91823E+03
   8.88343E+02 -1.45957E+03  2.16789E+03 -3.06502E+03  2.80869E+03  3.74743E+03  3.11846E+03  2.89987E+03  4.90640E+03  2.38186E+02
   2.60242E+03  1.64887E+02  1.46284E+03 -4.03539E+03 -1.81702E+03  2.12327E+03 -2.06023E+02 -1.87061E+03  3.53507E+03  1.23549E+03
   6.20857E+02  1.34227E+03  1.91180E+03  1.90774E+02  1.08809E+03 -1.33639E+03  2.26353E+03 -3.08957E+03 -2.43548E+03  2.11226E+03
  -2.93234E+03  6.23803E+02 -8.10410E+02 -1.08469E+03 -2.69052E+03 -2.62422E+02  2.80129E+03  4.49248E+03  3.74720E+03  6.21778E+03
   1.73438E+03  3.07133E+03 -8.28568E+01  6.63695E+01 -3.86030E+03
 NY points of the fit to the data follow
   2.35396E+02  2.36643E+02  2.37913E+02  2.39201E+02  2.40518E+02  2.41860E+02  2.43244E+02  2.44669E+02  2.46156E+02  2.47716E+02
   2.49385E+02  2.51203E+02  2.53276E+02  2.55873E+02  2.59965E+02  2.68418E+02  2.87030E+02  3.22360E+02  3.76047E+02  4.41194E+02
   5.05780E+02  5.59491E+02  5.97670E+02  6.20713E+02  6.31440E+02  6.32675E+02  6.26129E+02  6.12416E+02  5.91659E+02  5.64045E+02
   5.30209E+02  4.91576E+02  4.50676E+02  4.11218E+02  3.77440E+02  3.53146E+02  3.40576E+02  3.40757E+02  3.54979E+02  3.91421E+02
   4.59903E+02  5.48216E+02  6.37796E+02  7.17040E+02  7.86030E+02  8.52741E+02  9.22902E+02  9.95045E+02  1.06589E+03  1.13320E+03
   1.19194E+03  1.23284E+03  1.24837E+03  1.23636E+03  1.19924E+03  1.14329E+03  1.07618E+03  1.00452E+03  9.32143E+02  8.60171E+02
   7.87603E+02  7.14086E+02  6.41900E+02  5.74613E+02  5.15655E+02  4.67774E+02  4.33097E+02  4.13512E+02  4.10080E+02  4.22404E+02
   4.48910E+02  4.87387E+02  5.38028E+02  6.01935E+02  6.76983E+02  7.62037E+02  8.50734E+02  9.36071E+02  1.01049E+03  1.06572E+03
   1.09783E+03  1.10662E+03  1.09439E+03  1.06421E+03  1.01920E+03  9.62247E+02  8.96156E+02  8.23834E+02  7.48557E+02  6.73885E+02
   6.03532E+02  5.41055E+02  4.89522E+02  4.51466E+02  4.29694E+02  4.26593E+02  4.41503E+02  4.71554E+02  5.16320E+02  5.77725E+02
   6.52928E+02  7.33341E+02  8.11902E+02  8.84862E+02  9.47648E+02  9.94437E+02  1.02125E+03  1.02729E+03  1.01409E+03  9.84370E+02
   9.41221E+02  8.87892E+02  8.28272E+02  7.68750E+02  7.20307E+02  6.95959E+02  7.02242E+02  7.35011E+02  7.85678E+02  8.47669E+02
   9.14845E+02  9.78868E+02  1.03103E+03  1.06537E+03  1.07963E+03  1.07457E+03  1.05232E+03  1.01505E+03  9.64464E+02  9.02604E+02
   8.32785E+02  7.60537E+02  6.93683E+02  6.41288E+02  6.08043E+02  5.98431E+02  6.11988E+02  6.41216E+02  6.80143E+02  7.20328E+02
   7.54181E+02  7.77425E+02  7.89216E+02  7.90335E+02  7.82112E+02  7.65468E+02  7.41190E+02  7.09957E+02  6.73037E+02  6.32183E+02
   5.89907E+02  5.49059E+02  5.12521E+02  4.82282E+02  4.59485E+02  4.44051E+02  4.34842E+02  4.30433E+02  4.30234E+02  4.34723E+02
   4.45710E+02  4.63867E+02  4.88896E+02  5.21787E+02  5.64789E+02  6.18424E+02  6.82195E+02  7.52859E+02  8.30430E+02  9.10998E+02
   9.85338E+02  1.04754E+03  1.09227E+03  1.11664E+03  1.12074E+03  1.10664E+03  1.07709E+03  1.03483E+03  9.82389E+02  9.22310E+02
   8.57255E+02  7.90161E+02  7.24217E+02  6.62606E+02  6.08108E+02  5.62670E+02  5.27207E+02  5.01518E+02  4.84333E+02  4.73380E+02
   4.66672E+02  4.62731E+02  4.60441E+02  4.59182E+02  4.58713E+02  4.58840E+02  4.59524E+02  4.60665E+02  4.62311E+02  4.64422E+02
   4.67158E+02  4.70567E+02  4.75007E+02  4.80738E+02  4.88628E+02  4.99689E+02  5.16844E+02  5.45680E+02  6.03328E+02  7.05503E+02
   8.32996E+02  9.57102E+02  1.05834E+03  1.12973E+03  1.17321E+03  1.19448E+03  1.19834E+03  1.18716E+03  1.16131E+03  1.12091E+03
   1.06640E+03  9.99130E+02  9.21231E+02  8.36635E+02  7.51722E+02  6.74548E+02  6.11929E+02  5.67500E+02  5.40361E+02  5.25340E+02
   5.16492E+02  5.10923E+02  5.07332E+02  5.05135E+02  5.03904E+02  5.03460E+02  5.03591E+02  5.04259E+02  5.05346E+02  5.06906E+02
   5.08894E+02  5.11459E+02  5.14667E+02  5.18869E+02  5.24458E+02  5.32567E+02  5.45483E+02  5.68846E+02  6.06717E+02  6.57146E+02
   7.11439E+02  7.61597E+02  8.04909E+02  8.46254E+02  8.95498E+02  9.56838E+02  1.02373E+03  1.08244E+03  1.12314E+03  1.14213E+03
   1.14114E+03  1.12456E+03  1.09789E+03  1.06593E+03  1.03200E+03  9.97298E+02  9.61793E+02  9.25318E+02  8.88919E+02  8.54717E+02
   8.25565E+02  8.03596E+02  7.90061E+02  7.85646E+02  7.93363E+02  8.16201E+02  8.48034E+02  8.81947E+02  9.19184E+02  9.59813E+02
   9.99259E+02  1.03720E+03  1.07233E+03  1.09986E+03  1.11913E+03  1.13334E+03  1.14113E+03  1.13902E+03  1.12484E+03  1.09833E+03
   1.06126E+03  1.01669E+03  9.67923E+02  9.17772E+02  8.68423E+02  8.21083E+02  7.76688E+02  7.36769E+02  7.02781E+02  6.75731E+02
   6.56557E+02  6.45153E+02  6.40315E+02  6.41454E+02  6.48409E+02  6.59953E+02  6.73990E+02  6.88411E+02  7.01768E+02  7.13826E+02
   7.24907E+02  7.34773E+02  7.43203E+02  7.51317E+02  7.61666E+02  7.76887E+02  7.99035E+02  8.29188E+02  8.66343E+02  9.07157E+02
   9.47559E+02  9.83690E+02  1.01204E+03  1.03016E+03  1.03739E+03  1.03448E+03  1.02283E+03  1.00393E+03  9.79250E+02  9.50131E+02
   9.18118E+02  8.85807E+02  8.56864E+02  8.36369E+02  8.33731E+02  8.58883E+02  9.12578E+02  9.97820E+02  1.11707E+03  1.25387E+03
   1.39303E+03  1.52407E+03  1.63286E+03  1.71019E+03  1.75380E+03  1.76545E+03  1.74827E+03  1.70562E+03  1.64006E+03  1.55416E+03
   1.45146E+03  1.33701E+03  1.21712E+03  1.09921E+03  9.90500E+02  8.96294E+02  8.19844E+02  7.62278E+02  7.21530E+02  6.93990E+02
   6.76430E+02  6.65434E+02  6.58256E+02  6.53577E+02  6.50732E+02  6.49307E+02  6.49065E+02  6.49875E+02  6.51737E+02  6.54861E+02
   6.59939E+02  6.68605E+02  6.83920E+02  7.08954E+02  7.46513E+02  7.99406E+02  8.67230E+02  9.48217E+02  1.04002E+03  1.13733E+03
   1.23575E+03  1.33068E+03  1.41652E+03  1.48964E+03  1.54544E+03  1.58109E+03  1.59600E+03  1.59157E+03  1.57070E+03  1.53686E+03
   1.49791E+03  1.46110E+03  1.43481E+03  1.43737E+03  1.48010E+03  1.55438E+03  1.63983E+03  1.71406E+03  1.76498E+03  1.79193E+03
   1.79729E+03  1.78394E+03  1.75370E+03  1.70624E+03  1.64088E+03  1.55817E+03  1.46015E+03  1.35026E+03  1.23361E+03  1.11741E+03
   1.00993E+03  9.18373E+02  8.47267E+02  7.96763E+02  7.62748E+02  7.39891E+02  7.24038E+02  7.12745E+02  7.04886E+02  6.99615E+02
   6.96149E+02  6.93962E+02  6.92610E+02  6.91746E+02  6.91181E+02  6.90811E+02  6.90577E+02  6.90439E+02  6.90376E+02  6.90376E+02
   6.90437E+02  6.90557E+02  6.90741E+02  6.90989E+02  6.91307E+02  6.91695E+02  6.92152E+02  6.92671E+02  6.93254E+02  6.93888E+02
   6.94568E+02  6.95287E+02  6.96039E+02  6.96817E+02  6.97617E+02  6.98441E+02  6.99274E+02  7.00118E+02  7.00975E+02  7.01841E+02
   7.02717E+02  7.03600E+02  7.04492E+02  7.05389E+02  7.06294E+02  7.07203E+02  7.08118E+02  7.09037E+02  7.09962E+02  7.10890E+02
   7.11824E+02  7.12761E+02  7.13703E+02  7.14646E+02  7.15594E+02  7.16544E+02  7.17499E+02  7.18454E+02  7.19416E+02  7.20376E+02
   7.21343E+02  7.22308E+02  7.23278E+02  7.24247E+02  7.25220E+02  7.26193E+02  7.27170E+02  7.28146E+02  7.29126E+02  7.30105E+02
   7.31087E+02  7.32068E+02  7.33052E+02  7.34036E+02  7.35022E+02  7.36008E+02  7.36996E+02  7.37984E+02  7.38974E+02  7.39966E+02
   7.40958E+02  7.41951E+02  7.42945E+02  7.43939E+02  7.44936E+02  7.45932E+02  7.46930E+02  7.47926E+02  7.48926E+02  7.49923E+02
   7.50931E+02  7.51931E+02  7.52933E+02  7.53933E+02  7.54937E+02  7.55939E+02  7.56943E+02  7.57946E+02  7.58951E+02  7.59954E+02
   7.60960E+02  7.61963E+02  7.62970E+02  7.63973E+02  7.64981E+02  7.65986E+02  7.66994E+02  7.67999E+02  7.69008E+02  7.70015E+02
   7.71025E+02  7.72032E+02  7.73044E+02  7.74052E+02  7.75061E+02  7.76071E+02  7.77082E+02  7.78092E+02  7.79103E+02  7.80113E+02
   7.81125E+02  7.82135E+02  7.83147E+02  7.84157E+02  7.85170E+02  7.86180E+02  7.87194E+02  7.88204E+02  7.89218E+02  7.90228E+02
   7.91240E+02  7.92250E+02  7.93263E+02  7.94273E+02  7.95286E+02  7.96297E+02  7.97312E+02  7.98324E+02  7.99339E+02  8.00351E+02
   8.01369E+02  8.02381E+02  8.03399E+02  8.04413E+02  8.05430E+02  8.06444E+02  8.07470E+02  8.08485E+02  8.09501E+02  8.10515E+02
   8.11533E+02  8.12547E+02  8.13566E+02  8.14581E+02  8.15600E+02  8.16616E+02  8.17636E+02  8.18653E+02  8.19675E+02  8.20692E+02
   8.21713E+02  8.22731E+02  8.23753E+02  8.24770E+02  8.25791E+02  8.26808E+02  8.27830E+02  8.28849E+02  8.29871E+02  8.30891E+02
   8.31914E+02  8.32937E+02  8.33962E+02  8.34985E+02  8.36014E+02  8.37040E+02  8.38071E+02  8.39101E+02  8.40138E+02  8.41173E+02
   8.42218E+02  8.43267E+02  8.44332E+02  8.45413E+02  8.46529E+02  8.47686E+02  8.48914E+02  8.50235E+02  8.51698E+02  8.53349E+02
   8.55270E+02  8.57547E+02  8.60312E+02  8.63714E+02  8.67942E+02  8.73178E+02  8.79599E+02  8.87305E+02  8.96314E+02  9.06475E+02
