 $SEQPAR
 ECHOT=3.000000
 HZPPM=500.307370
 SEQ='STEAM'
 $END
 $NMID
 ID=''
 FMTDAT='(f16.3)'
 VOLUME=1.000000
 TRAMP=1.000000
 $END
 1.009098
 0.474680
 0.246273
 2.047231
 -1.955141
 0.585341
 -0.561412
 -0.297488
 -0.483926
 0.273083
 -0.877055
 0.213263
 -0.962248
 0.031964
 -0.847604
 -0.266801
 -0.417855
 -0.492146
 -0.115487
 0.164675
 -0.784173
 0.180714
 -0.703594
 -0.357937
 -0.289977
 -0.289413
 -0.186166
 -0.035690
 -0.295610
 0.130131
 -0.522535
 0.146295
 -0.511234
 -0.033574
 -0.301875
 0.231454
 -0.846682
 0.240399
 -0.808773
 -0.391964
 -0.245915
 -0.218348
 -0.374473
 0.194770
 -0.769475
 -0.154928
 -0.504742
 -0.222732
 -0.503222
 -0.181325
 -0.360019
 -0.240710
 -0.353772
 -0.006657
 -0.624724
 -0.005052
 -0.368663
 -0.359443
 -0.149231
 0.021073
 -0.607724
 0.265527
 -0.576517
 -0.195778
 -0.239138
 -0.247098
 -0.260488
 0.147840
 -0.534181
 0.250292
 -0.721243
 0.036050
 -0.616988
 -0.327132
 -0.229889
 -0.254430
 -0.273179
 0.151648
 -0.544136
 0.034266
 -0.444416
 -0.038344
 -0.483115
 0.168303
 -0.637387
 -0.085224
 -0.500254
 -0.326763
 -0.338744
 -0.194345
 -0.193078
 -0.161754
 -0.080215
 0.066401
 -0.398174
 0.281133
 -0.702161
 0.089742
 -0.550617
 -0.171328
 -0.497847
 -0.110244
 -0.481980
 -0.165601
 -0.343324
 -0.207599
 -0.268473
 -0.088540
 -0.351036
 0.101507
 -0.507063
 0.081296
 -0.568138
 -0.120608
 -0.443159
 -0.263187
 -0.277812
 -0.216777
 -0.192369
 -0.119538
 -0.116825
 -0.019169
 -0.256078
 0.228089
 -0.543413
 0.240373
 -0.658892
 -0.023531
 -0.592432
 -0.219911
 -0.342540
 -0.259351
 -0.255074
 -0.081829
 -0.430543
 -0.054029
 -0.463375
 -0.250018
 -0.128821
 -0.234249
 -0.165166
 -0.013836
 -0.389976
 0.027118
 -0.379378
 -0.096847
 -0.265007
 -0.091505
 -0.306525
 0.015751
 -0.391417
 0.004161
 -0.455985
 -0.048396
 -0.356229
 -0.144941
 -0.285364
 -0.089596
 -0.426308
 0.009577
 -0.411230
 -0.174616
 -0.290991
 -0.217683
 -0.233589
 -0.093219
 -0.321376
 -0.106879
 -0.261643
 -0.200497
 -0.172120
 -0.143602
 -0.166867
 0.061008
 -0.362515
 0.121799
 -0.518718
 -0.046282
 -0.413668
 -0.188534
 -0.281197
 -0.140866
 -0.308876
 -0.091929
 -0.339559
 -0.185546
 -0.150694
 -0.189598
 -0.123813
 0.023182
 -0.380409
 0.068193
 -0.469029
 -0.124924
 -0.268705
 -0.270755
 -0.088303
 -0.143087
 -0.254276
 0.073060
 -0.482029
 0.000847
 -0.404967
 -0.252125
 -0.153570
 -0.299293
 -0.115213
 -0.086705
 -0.194075
 -0.052285
 -0.220733
 -0.103771
 -0.167898
 -0.038235
 -0.223524
 0.072795
 -0.380292
 0.026225
 -0.419085
 -0.187441
 -0.276155
 -0.260558
 -0.160832
 -0.192476
 -0.161020
 -0.121581
 -0.174298
 -0.056506
 -0.209014
 0.011672
 -0.294315
 0.020024
 -0.339717
 -0.061020
 -0.316000
 -0.158800
 -0.180155
 -0.137657
 -0.106196
 -0.078782
 -0.228484
 0.034020
 -0.277012
 -0.028759
 -0.208580
 -0.124690
 -0.213680
 -0.061585
 -0.293003
 -0.083847
 -0.248297
 -0.128032
 -0.121345
 -0.117510
 -0.127707
 -0.016062
 -0.291766
 0.004159
 -0.334187
 -0.137288
 -0.150400
 -0.183303
 -0.056448
 -0.030202
 -0.164688
 0.090193
 -0.278323
 0.022997
 -0.275691
 -0.037630
 -0.246421
 -0.059707
 -0.249384
 -0.077437
 -0.242887
 -0.112389
 -0.193838
 -0.152108
 -0.031148
 -0.143514
 -0.115196
 -0.026626
 -0.239290
 -0.032664
 -0.187915
 -0.110973
 -0.114032
 -0.093063
 -0.156278
 -0.015502
 -0.140232
 -0.018702
 -0.162324
 -0.006501
 -0.241329
 0.063956
 -0.309827
 -0.009231
 -0.316367
 -0.086154
 -0.219456
 -0.146035
 -0.116962
 -0.071200
 -0.116801
 -0.022920
 -0.203985
 -0.046087
 -0.159942
 -0.088507
 -0.130039
 -0.036928
 -0.141513
 -0.020541
 -0.178514
 -0.006426
 -0.213447
 -0.096717
 -0.080276
 -0.031501
 -0.137936
 0.059053
 -0.277917
 -0.031523
 -0.198545
 -0.109950
 -0.072388
 -0.103742
 -0.067940
 0.037333
 -0.196929
 0.027416
 -0.211537
 -0.035185
 -0.184957
 -0.093824
 -0.186514
 -0.055724
 -0.220543
 -0.067536
 -0.161163
 -0.153345
 -0.051927
 -0.115507
 -0.025709
 0.012219
 -0.163089
 0.055777
 -0.199976
 -0.057136
 -0.106707
 -0.096981
 -0.139081
 -0.043928
 -0.119339
 -0.052941
 -0.091444
 -0.052276
 -0.079484
 -0.009260
 -0.092154
 0.059284
 -0.208820
 0.003365
 -0.186354
 -0.097047
 -0.116274
 -0.051089
 -0.031569
 -0.045083
 -0.132234
 -0.014709
 -0.164033
 -0.033520
 -0.150637
 -0.078274
 -0.149279
 -0.082001
 -0.135388
 -0.052699
 -0.132330
 -0.082202
 -0.039645
 -0.075935
 -0.023132
 0.030764
 -0.162318
 0.082757
 -0.235248
 0.006384
 -0.166207
 -0.103760
 -0.117684
 -0.067328
 -0.103537
 -0.013008
 -0.116266
 -0.023373
 -0.117575
 -0.080084
 -0.044822
 0.006672
 -0.106041
 0.043925
 -0.137586
 0.022073
 -0.160758
 -0.131382
 -0.033140
 -0.064732
 -0.025351
 -0.012105
 -0.097876
 0.016100
 -0.136364
 -0.022083
 -0.121507
 -0.047221
 -0.119980
 0.005477
 -0.107633
 -0.042411
 -0.116393
 -0.072933
 -0.062060
 -0.052521
 -0.052911
 0.029503
 -0.110679
 -0.033776
 -0.106339
 -0.065826
 -0.035815
 -0.076783
 -0.052638
 -0.006216
 -0.102409
 0.008594
 -0.107343
 -0.028050
 -0.066891
 -0.066704
 -0.093488
 -0.012834
 -0.089385
 0.003749
 -0.094733
 -0.088017
 -0.024801
 -0.075766
 -0.009960
 0.058083
 -0.109512
 0.040750
 -0.173264
 -0.063342
 -0.091762
 -0.083735
 -0.052972
 -0.077597
 -0.038025
 -0.002750
 -0.096540
 -0.003011
 -0.079476
 0.002089
 -0.067616
 0.032481
 -0.132564
 0.051000
 -0.140025
 -0.074844
 -0.093616
 -0.084228
 0.006679
 -0.034571
 -0.077094
 0.058969
 -0.106262
 -0.016719
 -0.114727
 -0.038800
 -0.052892
 -0.049009
 -0.083168
 -0.030093
 -0.055706
 -0.032968
 -0.020104
 -0.048237
 -0.043848
 -0.012948
 -0.087729
 0.037323
 -0.114412
 0.016782
 -0.091293
 -0.059034
 -0.006712
 -0.054941
 -0.021097
 -0.024137
 -0.058121
 0.025457
 -0.098866
 -0.003791
 -0.082555
 0.036019
 -0.117405
 0.032059
 -0.151008
 -0.023881
 -0.071517
 -0.065061
 -0.022300
 -0.037689
 0.012501
 -0.004020
 -0.071426
 0.029626
 -0.053509
 0.000262
 -0.070180
 -0.011838
 -0.054315
 0.005471
 -0.039849
 0.028073
 -0.048569
 -0.054780
 -0.026234
 -0.026348
 -0.030646
 -0.001340
 -0.049456
 0.028281
 -0.076752
 0.009646
 -0.000806
 -0.062607
 -0.020945
 -0.023979
 -0.091771
 0.033204
 -0.130339
 -0.015430
 -0.045610
 -0.042972
 -0.054872
 -0.050476
 -0.034562
 -0.006346
 -0.037300
 -0.042991
 0.003477
 -0.032090
 -0.015312
 0.014973
 -0.068278
 0.039619
 -0.082712
 -0.029462
 -0.025089
 -0.077850
 -0.027304
 -0.024253
 -0.026722
 0.054442
 -0.059701
 0.029901
 -0.064144
 -0.016957
 0.007903
 -0.025456
 -0.059601
 0.024804
 -0.068990
 -0.013541
 -0.023380
 -0.052585
 0.034042
 0.006561
 -0.070878
 0.025346
 -0.072093
 0.003329
 -0.083786
 -0.042800
 -0.027462
 -0.026944
 -0.039941
 -0.029041
 -0.059180
 -0.004567
 0.028599
 -0.014249
 -0.002287
 0.028702
 -0.059274
 0.042629
 -0.087530
 -0.019298
 -0.031462
 -0.065781
 -0.022531
 -0.054520
 -0.057919
 -0.007522
 -0.038756
 0.019568
 -0.088129
 -0.008210
 -0.035780
 0.016243
 -0.054799
 -0.024963
 -0.042056
 -0.035910
 -0.043624
 -0.048688
 0.014613
 -0.035444
 -0.055131
 0.038509
 -0.042210
 0.014728
 -0.036135
 -0.017302
 -0.060826
 0.023031
 -0.017375
 -0.012915
 -0.056291
 0.001228
 -0.017992
 -0.013054
 -0.006216
 -0.037441
 0.003072
 0.056610
 -0.044513
 -0.006970
 -0.043753
 -0.006585
 0.002037
 -0.048988
 -0.041613
 -0.020856
 -0.008823
 0.077648
 -0.034843
 0.049478
 -0.009517
 -0.000957
 -0.034078
 -0.029875
 -0.064018
 -0.004753
 -0.052271
 -0.008410
 -0.005649
 -0.023063
 0.025082
 -0.005686
 -0.058459
 -0.010543
 -0.062457
 -0.001104
 0.010776
 -0.032923
 -0.026909
 0.003111
 -0.028060
 0.058026
 -0.032904
 0.031001
 -0.027085
 -0.029925
 -0.032088
 -0.003953
 -0.059634
 -0.013174
 -0.041322
 -0.030592
 -0.018257
 -0.002789
 -0.015231
 -0.002822
 -0.047092
 0.032189
 -0.085977
 0.021193
 -0.047852
 -0.036361
 -0.021650
 -0.049242
 -0.016468
 -0.005082
 -0.042594
 -0.000568
 -0.031433
 -0.019182
 -0.016587
 -0.018933
 -0.024567
 0.017124
 -0.020540
 -0.029134
 -0.033566
 -0.037961
 -0.010120
 -0.044524
 0.006918
 0.060590
 -0.017781
 0.002715
 -0.040754
 0.033265
 -0.033700
 -0.014729
 -0.010059
 -0.039137
 -0.034946
 -0.019988
 -0.022706
 -0.028179
 -0.020380
 -0.019689
 -0.006966
 0.029864
 -0.021130
 -0.013848
 -0.038865
 -0.006487
 0.009992
 -0.011617
 -0.013165
 0.022813
 -0.014989
 0.020732
 0.010544
 -0.013272
 -0.020939
 0.030203
 -0.031547
 0.038977
 -0.051736
 -0.012948
 -0.058823
 -0.026531
 -0.047890
 -0.039570
 -0.005714
 -0.046798
 -0.022859
 0.006786
 -0.031692
 0.013554
 -0.027992
 -0.046860
 0.002549
 -0.009171
 0.026792
 -0.001200
 -0.023605
 -0.017214
 -0.012125
 -0.004151
 0.009207
 -0.000999
 -0.009634
 0.013233
 -0.059026
 0.001104
 0.002431
 0.020986
 -0.045424
 -0.004632
 -0.027728
 0.029078
 -0.029317
 0.023633
 -0.014112
 -0.008665
 -0.027381
 -0.009308
 -0.021283
 -0.012429
 -0.027301
 0.015126
 0.016250
 -0.018846
 0.010887
 0.016690
 -0.007499
 0.032430
 -0.032741
 0.003317
 0.002827
 -0.016752
 -0.035977
 -0.019617
 -0.015489
 -0.006497
 -0.009565
 -0.007642
 -0.008139
 -0.004260
 -0.031747
 -0.009070
 0.000786
 -0.015815
 -0.005990
 0.006579
 -0.016969
 0.002292
 -0.001119
 -0.026627
 -0.017443
 0.024161
 -0.018745
 0.019516
 -0.029977
 -0.003618
 -0.024686
 -0.005436
 -0.016416
 -0.019555
 -0.003831
 -0.003819
 -0.014111
 0.009064
 0.012135
 -0.002670
 -0.023980
 -0.000934
 -0.009949
 0.016627
 -0.026195
 -0.017778
 -0.077816
 0.003496
 0.020442
 -0.010424
 -0.020858
 0.017295
 -0.032295
 -0.011158
 -0.025714
 -0.000187
 -0.002447
 0.011599
 0.027489
 0.036937
 -0.021984
 -0.006483
 -0.021007
 -0.037031
 -0.035748
 0.004583
 -0.010905
 0.055341
 -0.045879
 -0.003351
 -0.063185
 -0.017561
 -0.000969
 -0.044861
 0.009753
 0.004040
 -0.037216
 -0.039251
 -0.014575
 0.011250
 -0.020313
 0.017687
 0.008125
 -0.012590
 0.004608
 0.022964
 -0.026264
 -0.029679
 0.009259
 -0.011313
 -0.029459
 -0.018697
 0.008684
 0.015603
 0.015967
 -0.014841
 -0.023678
 -0.003598
 -0.006849
 -0.014318
 -0.014566
 -0.007948
 0.007261
 -0.017190
 0.001914
 -0.009787
 0.003807
 0.003012
 -0.013644
 0.001462
 -0.015354
 0.016656
 0.005872
 -0.014235
 0.005971
 0.025736
 -0.032204
 0.012834
 -0.019995
 -0.004237
