 $SEQPAR
 ECHOT=3.000000
 HZPPM=500.307370
 SEQ='STEAM'
 $END
 $NMID
 ID=''
 FMTDAT='(f16.3)'
 VOLUME=1.000000
 TRAMP=1.000000
 $END
 188286.574843
 88570.038596
 -210821.962018
 -321842.664967
 -133975.247343
 356460.384623
 74312.384471
 -92369.100920
 73191.334853
 73434.255665
 -138801.449485
 -95386.187574
 168923.093528
 61130.374198
 -161617.512504
 -37021.817735
 114084.326439
 38681.282788
 14218.140271
 34732.039676
 -17386.370668
 -149143.220657
 -17758.279620
 146220.263917
 -1950.416569
 -76419.048095
 31206.100568
 16647.850578
 -50599.894033
 32734.898895
 63513.515488
 -78849.830850
 -50491.622898
 81174.006729
 -41438.613740
 -57624.820540
 106569.692274
 124952.548320
 -71189.509676
 -151836.219019
 35843.637948
 49804.916624
 -59267.620458
 51867.804159
 128471.072874
 -70319.164276
 -75733.014590
 69724.081414
 29185.267270
 -95442.771961
 -6462.578891
 80548.335710
 -53728.535086
 -38368.172210
 115275.237518
 17329.399289
 -86354.556977
 -42105.383512
 17046.478201
 -22365.388539
 9961.112140
 123344.134912
 22404.378820
 -111373.974583
 -13545.710065
 62715.551020
 -55885.922162
 -298.151861
 102348.437639
 -40501.819343
 -121401.480632
 58460.597934
 121414.766974
 -47303.135621
 -56657.180802
 29726.910874
 -38239.271797
 -44006.563192
 67970.450567
 75691.402300
 -71902.675697
 -41921.945008
 89550.664194
 -33057.362804
 -112889.972643
 40656.519460
 104336.447882
 -39293.878136
 -46534.643304
 56075.843867
 18688.908409
 -43122.349875
 19264.109658
 2533.387283
 -88057.447982
 22743.865046
 128743.333677
 -29505.954667
 -104071.857101
 27318.843069
 66243.281175
 -68293.833489
 -39034.052067
 86711.676887
 13085.025535
 -73708.689092
 25740.667671
 46040.988162
 -68182.917431
 -52.240334
 90433.483837
 -31676.288804
 -98552.474866
 45073.570555
 81358.234652
 -51281.862641
 -41081.233278
 51336.482155
 4558.650414
 -42012.914198
 14984.081549
 16230.647781
 -55363.972528
 32080.456439
 86615.448745
 -69211.899704
 -95486.476864
 77565.038109
 80211.942938
 -86424.205217
 -43971.303712
 67032.524875
 -10773.992235
 -48808.225502
 61519.083080
 52637.314474
 -80099.862770
 -56883.407305
 37152.934086
 33284.261196
 -23370.454478
 20254.479485
 17586.536594
 -70789.025333
 -7488.192103
 72673.077724
 -14204.171172
 -50346.808068
 51523.202290
 25003.437399
 -73000.058725
 -2360.285931
 81441.952507
 -26223.263764
 -63281.485128
 33836.306133
 28568.117635
 -47942.160953
 19645.207582
 77101.056518
 -23491.852892
 -79983.287369
 32814.426898
 59338.067496
 -44195.765025
 -15777.671713
 62218.746708
 -11061.782377
 -58697.122045
 18372.966603
 31387.030552
 -27644.486568
 20255.056153
 26243.887794
 -63304.241681
 -32930.488278
 88220.130600
 40737.439685
 -80753.899926
 -25961.427693
 58313.598144
 -6580.356489
 -44091.806069
 40886.327524
 39187.863319
 -60639.421319
 -22165.762888
 39380.306004
 -20171.928568
 -12062.746215
 71842.131137
 6227.378098
 -90381.478738
 -5788.194393
 70550.636157
 9414.085534
 -31219.958811
 3096.462968
 -13923.098212
 -47360.647220
 40579.773015
 80266.769445
 -32159.763474
 -82997.226961
 17948.545509
 60146.242183
 -25093.733482
 -9704.788497
 33383.128747
 -17090.078258
 -33080.236246
 31255.730325
 4420.021041
 -31824.546272
 33268.182105
 28586.889934
 -62567.306196
 -33828.367470
 74130.002007
 42926.354925
 -65237.875578
 -27617.709386
 46721.013143
 2743.300900
 -30430.399337
 22165.524472
 5035.636418
 -33815.573116
 24611.008126
 30331.861515
 -50330.465840
 -22283.741948
 63088.931401
 12937.848918
 -65958.742053
 -1980.640031
 41058.116028
 -10194.706114
 -18584.960513
 16227.084837
 -16516.372799
 -39812.600364
 29435.289419
 42824.550599
 -26604.157714
 -36717.622465
 40443.754315
 9272.978173
 -55279.978793
 13334.885846
 45756.704802
 -24969.005399
 -24773.712483
 19484.791556
 -4773.378171
 -23537.300526
 39043.887070
 37946.339985
 -50902.819056
 -44196.493571
 32410.743334
 30114.412773
 -11881.005068
 1238.959619
 503.568842
 -35031.763098
 1418.033795
 52089.670009
 -13813.832457
 -50046.434683
 27774.785278
 38298.696905
 -41627.071050
 -25322.261220
 48747.957307
 10830.586158
 -45972.228620
 441.303798
 26729.457745
 6031.376005
 -4439.068537
 21609.779290
 -15412.757797
 -42345.110887
 16287.262997
 37321.442477
 -18122.214163
 -20635.708099
 28743.797483
 -5696.646016
 -21451.423083
 15383.640171
 11689.844327
 -27967.354150
 16557.096214
 43542.094225
 -29473.214804
 -49762.708036
 42096.310756
 44395.270110
 -38459.282814
 -30661.380061
 25170.137674
 4386.326419
 -17804.621734
 13276.063052
 18649.909553
 -34275.232543
 -10772.910891
 32361.962717
 -9064.179696
 -23538.240735
 21862.157950
 15295.347329
 -33300.756625
 -1403.324654
 43706.789652
 -1250.979690
 -13798.570877
 8276.984495
 -5785.843112
 -27392.467463
 7845.510235
 51595.685811
 -9171.166491
 -41342.572636
 5212.457071
 23020.899911
 -12130.102236
 7879.625065
 29029.442840
 -23100.553343
 -27027.333172
 29505.029177
 21402.006177
 -32240.438853
 1934.629567
 36269.905142
 -20883.651962
 -37630.635145
 20025.892755
 36358.166317
 -12868.401376
 -19818.817545
 2609.097305
 -4626.191777
 -5361.088928
 31711.017515
 12027.098090
 -36895.622185
 -8317.794986
 25586.796868
 -14860.578491
 -22799.130027
 19472.572713
 14636.728277
 -18854.424037
 -5547.713757
 12510.773707
 -8149.913853
 3144.581897
 20202.404468
 -2300.314592
 -38900.616444
 902.523473
 39193.722822
 -12373.213951
 -20210.659697
 4592.383346
 9185.169992
 -24319.979728
 4984.436689
 26274.191617
 -16898.463348
 -23087.780006
 21686.013771
 11775.751065
 -29517.375218
 5696.405132
 26502.857489
 -13609.320745
 -25684.599494
 6424.884091
 14635.344255
 -1790.977655
 6955.092810
 8292.404962
 -32969.116883
 -10035.480442
 42748.677038
 12728.254318
 -34272.354216
 3605.963114
 25039.923362
 -16361.846568
 -10554.648867
 21745.787483
 4094.662424
 -26335.019080
 -3322.095452
 3982.152234
 -7459.057776
 4564.317126
 20924.354064
 -11105.846253
 -23509.090714
 2217.182533
 38675.278126
 -1422.301064
 -13494.407183
 4917.820030
 1814.425054
 -13972.071267
 12137.917220
 16975.008292
 -19396.474626
 -10990.734663
 21699.102389
 -8884.304151
 -20574.074872
 9328.123170
 19466.458337
 -16950.484056
 -19223.283325
 13084.554500
 7675.802006
 -4713.659665
 10274.029542
 15104.847056
 -15428.641659
 -12645.513429
 19612.217239
 10094.113077
 -12166.528428
 6986.448000
 6999.999067
 -19026.279367
 -2388.804576
 20701.353407
 83.313313
 -17580.437335
 -1272.102332
 8980.923680
 -15144.781873
 1720.843115
 16603.951238
 5432.788290
 -23508.343270
 -4006.440756
 14325.515997
 -3235.623086
 10509.003561
 16848.718934
 -13837.215616
 -31127.760456
 14694.258395
 20206.278575
 -11356.616247
 -12944.594210
 11822.382699
 -3590.767322
 -6140.790550
 15453.448154
 9272.851640
 -14830.535376
 -338.250015
 9143.289338
 -10597.399657
 -8643.686143
 25053.123784
 19759.855268
 -22072.586839
 -11507.002390
 20486.728228
 5796.072346
 -3093.341194
 17660.299659
 -4013.151816
 -19913.599704
 -2509.840849
 22291.878577
 -3706.256653
 -13176.133437
 2722.490824
 8008.974123
 -14429.098568
 -2797.243208
 11749.603970
 3931.971713
 -8922.912721
 6858.436414
 5073.260707
 -15501.909414
 8725.801227
 16274.112206
 -14166.893277
 -18205.323084
 8947.813978
 10318.532994
 -431.596899
 -2720.036213
 5327.382378
 -11248.139630
 -3694.398212
 17590.397697
 5601.828810
 -13855.259654
 9511.997736
 13811.880027
 -18025.251488
 -16506.177855
 23266.120055
 12139.584034
 -13344.229426
 -4452.749275
 6851.336017
 2310.627758
 815.417641
 14132.101825
 -2908.368271
 -9609.559916
 2710.006493
 11229.786352
 -7088.516214
 -2815.364392
 9789.104722
 -5813.926394
 -6994.293960
 -4108.063618
 13027.848190
 -1463.843888
 -6781.476937
 5655.813785
 878.749456
 -6861.111289
 8119.614191
 8571.456254
 -11613.028008
 -11202.292664
 -3316.023695
 3796.630416
 -4569.212926
 14988.842407
 10340.740204
 -20090.924248
 -14003.375639
 8260.439910
 8275.405553
 -13230.637031
 -4299.155422
 4980.383990
 -4264.432228
 -9351.535022
 5033.086573
 5970.773751
 -789.004529
 3977.225852
 387.447864
 -14632.538349
 1685.289626
 15684.258391
 4733.408615
 -11169.381211
 -10400.128326
 6613.714479
 -1640.914666
 9356.044853
 6365.388711
 -8791.849046
 -8827.150699
 6160.005900
 10738.451673
 2939.645321
 -4011.719117
 10434.017910
 -6018.821440
 -12107.013170
 5051.016301
 10680.793525
 1106.070832
 1611.437722
 -6264.788618
 -9493.984851
 -10350.477541
 10591.494111
 8316.012639
 -13153.580083
 -11626.299509
 6054.246453
 3857.147280
 -9206.891006
 369.729009
 5491.480036
 -9617.842096
 -2756.554221
 -5286.409796
 -4950.245340
 2087.682102
 13622.563120
 115.938958
 -15476.109935
 -6340.031726
 9118.936379
 10097.541218
 -10003.832643
 -4591.889664
 5140.019096
 -9609.486144
 4342.361884
 6838.691346
 -7412.865539
 -14758.058413
 7273.653925
 921.992474
 -9753.537891
 -5577.916997
 9732.833388
 3427.202916
 -12196.889560
 -144.528265
 5592.423728
 4460.664481
 8892.788187
 8852.527233
 -6898.883111
 -4688.914191
 4534.618444
 5943.069887
 -11401.297850
 4157.743187
 3965.769762
 767.939899
 -6281.295689
 8421.212513
 3061.036252
 -2798.751839
 -6459.839860
 2902.139001
 -7578.664315
 7380.040551
 7175.819383
 4379.937908
 -8228.154133
 -675.377155
 4274.277938
 8088.692467
 -7522.863714
 4340.276510
 -14177.701382
 -3407.378889
 10863.997882
 3077.849522
 -1146.229411
 -1367.945892
 4333.740413
 7261.036241
 -11945.900757
 875.536714
 8904.032979
 -4278.380095
 -4278.262640
 -1151.560300
 858.957795
 4721.211284
 2621.805015
 10769.148454
 -8831.312184
 -7606.549885
 -3375.675124
 5512.175603
 -4761.419164
 1695.662636
 -2821.432176
 -11690.894421
 2751.262600
 7973.934327
 5393.841685
 -5255.862972
 2206.467129
 5614.548691
 -7681.840642
 -8416.709835
 6747.550090
 6819.147548
 -3404.713299
 532.666957
 2411.614301
 -1593.216824
 2694.734674
 10296.610393
 -5793.600664
 -15473.416475
 -818.063503
 11184.010850
 1197.466989
 -9965.102947
 2994.717688
 1171.757379
